I_cum,frequency
0,0.012
5,0.087
10,0.148
15,0.184
20,0.149
25,0.117
30,0.099
35,0.077
40,0.055
45,0.03
50,0.019
55,0.01
60,0.007
65,0.004
70,0.002
75,0
80,0
85,0
90,0
95,0
100,0
105,0
110,0
115,0
120,0
125,0
130,0
135,0
140,0
145,0
150,0
155,0
160,0
165,0
170,0
175,0
180,0
185,0
190,0
195,0
200,0
205,0
